/LowerBinDiameter_[nm]	 CenterBinDiameter_[nm]	 UpperBinDiameter_[nm]	 TotalParticlesCounted_WithinBin_AllVideosAnalyzed	 PSD_corrected_[counts/mL/nm]	 PSD_corrected_LT_[counts/mL/nm]	 
2.000000000000000	 2.025316000000000	 2.050633000000000	 0.000000000000000	 0.000000000000000	 0.000000000000000	 
2.050633000000000	 2.076590000000000	 2.102548000000000	 0.000000000000000	 0.000000000000000	 0.000000000000000	 
2.102548000000000	 2.129162000000000	 2.155777000000000	 0.000000000000000	 0.000000000000000	 0.000000000000000	 
2.155777000000000	 2.183065000000000	 2.210353000000000	 0.000000000000000	 0.000000000000000	 0.000000000000000	 
2.210353000000000	 2.238333000000000	 2.266312000000000	 0.000000000000000	 0.000000000000000	 0.000000000000000	 
2.266312000000000	 2.294999000000000	 2.323687000000000	 0.000000000000000	 0.000000000000000	 0.000000000000000	 
2.323687000000000	 2.353100000000000	 2.382514000000000	 0.000000000000000	 0.000000000000000	 0.000000000000000	 
2.382514000000000	 2.412673000000000	 2.442831000000000	 0.000000000000000	 0.000000000000000	 0.000000000000000	 
2.442831000000000	 2.473753000000000	 2.504675000000000	 0.000000000000000	 0.000000000000000	 0.000000000000000	 
2.504675000000000	 2.536380000000000	 2.568084000000000	 0.000000000000000	 0.000000000000000	 0.000000000000000	 
2.568084000000000	 2.600592000000000	 2.633099000000000	 0.000000000000000	 0.000000000000000	 0.000000000000000	 
2.633099000000000	 2.666429000000000	 2.699760000000000	 0.000000000000000	 0.000000000000000	 0.000000000000000	 
2.699760000000000	 2.733934000000000	 2.768108000000000	 0.000000000000000	 0.000000000000000	 0.000000000000000	 
2.768108000000000	 2.803147000000000	 2.838187000000000	 0.000000000000000	 0.000000000000000	 0.000000000000000	 
2.838187000000000	 2.874113000000000	 2.910040000000000	 0.000000000000000	 0.000000000000000	 0.000000000000000	 
2.910040000000000	 2.946876000000000	 2.983712000000000	 0.000000000000000	 0.000000000000000	 0.000000000000000	 
2.983712000000000	 3.021480000000000	 3.059249000000000	 0.000000000000000	 0.000000000000000	 0.000000000000000	 
3.059249000000000	 3.097973000000000	 3.136698000000000	 0.000000000000000	 0.000000000000000	 0.000000000000000	 
3.136698000000000	 3.176403000000000	 3.216108000000000	 0.000000000000000	 0.000000000000000	 0.000000000000000	 
3.216108000000000	 3.256818000000000	 3.297528000000000	 0.000000000000000	 0.000000000000000	 0.000000000000000	 
3.297528000000000	 3.339269000000000	 3.381010000000000	 0.000000000000000	 0.000000000000000	 0.000000000000000	 
3.381010000000000	 3.423808000000000	 3.466605000000000	 0.000000000000000	 0.000000000000000	 0.000000000000000	 
3.466605000000000	 3.510486000000000	 3.554368000000000	 0.000000000000000	 0.000000000000000	 0.000000000000000	 
3.554368000000000	 3.599360000000000	 3.644351000000000	 0.000000000000000	 0.000000000000000	 0.000000000000000	 
3.644351000000000	 3.690483000000000	 3.736614000000000	 0.000000000000000	 0.000000000000000	 0.000000000000000	 
3.736614000000000	 3.783912000000000	 3.831211000000000	 0.000000000000000	 0.000000000000000	 0.000000000000000	 
3.831211000000000	 3.879708000000000	 3.928204000000000	 0.000000000000000	 0.000000000000000	 0.000000000000000	 
3.928204000000000	 3.977928000000000	 4.027652000000000	 0.000000000000000	 0.000000000000000	 0.000000000000000	 
4.027652000000000	 4.078635000000000	 4.129618000000000	 0.000000000000000	 0.000000000000000	 0.000000000000000	 
4.129618000000000	 4.181892000000000	 4.234165000000000	 0.000000000000000	 0.000000000000000	 0.000000000000000	 
4.234165000000000	 4.287762000000000	 4.341360000000000	 0.000000000000000	 0.000000000000000	 0.000000000000000	 
4.341360000000000	 4.396313000000000	 4.451267000000000	 0.000000000000000	 0.000000000000000	 0.000000000000000	 
4.451267000000000	 4.507612000000000	 4.563958000000000	 0.000000000000000	 0.000000000000000	 0.000000000000000	 
4.563958000000000	 4.621729000000000	 4.679501000000000	 0.000000000000000	 0.000000000000000	 0.000000000000000	 
4.679501000000000	 4.738735000000000	 4.797969000000000	 0.000000000000000	 0.000000000000000	 0.000000000000000	 
4.797969000000000	 4.858703000000000	 4.919437000000000	 0.000000000000000	 0.000000000000000	 0.000000000000000	 
4.919437000000000	 4.981708000000000	 5.043980000000000	 0.000000000000000	 0.000000000000000	 0.000000000000000	 
5.043980000000000	 5.107827000000000	 5.171675000000000	 0.000000000000000	 0.000000000000000	 0.000000000000000	 
5.171675000000000	 5.237139000000000	 5.302604000000000	 0.000000000000000	 0.000000000000000	 0.000000000000000	 
5.302604000000000	 5.369725000000000	 5.436847000000000	 0.000000000000000	 0.000000000000000	 0.000000000000000	 
5.436847000000000	 5.505668000000000	 5.574489000000000	 0.000000000000000	 0.000000000000000	 0.000000000000000	 
5.574489000000000	 5.645052000000000	 5.715615000000000	 0.000000000000000	 0.000000000000000	 0.000000000000000	 
5.715615000000000	 5.787964000000000	 5.860314000000000	 0.000000000000000	 0.000000000000000	 0.000000000000000	 
5.860314000000000	 5.934495000000000	 6.008676000000000	 0.000000000000000	 0.000000000000000	 0.000000000000000	 
6.008676000000000	 6.084736000000000	 6.160795000000000	 0.000000000000000	 0.000000000000000	 0.000000000000000	 
6.160795000000000	 6.238779000000000	 6.316764000000000	 0.000000000000000	 0.000000000000000	 0.000000000000000	 
6.316764000000000	 6.396723000000000	 6.476682000000000	 0.000000000000000	 0.000000000000000	 0.000000000000000	 
6.476682000000000	 6.558666000000000	 6.640649000000000	 0.000000000000000	 0.000000000000000	 0.000000000000000	 
6.640649000000000	 6.724708000000000	 6.808767000000000	 0.000000000000000	 0.000000000000000	 0.000000000000000	 
6.808767000000000	 6.894954000000000	 6.981140000000000	 0.000000000000000	 0.000000000000000	 0.000000000000000	 
6.981140000000000	 7.069509000000000	 7.157878000000000	 0.000000000000000	 0.000000000000000	 0.000000000000000	 
7.157878000000000	 7.248484000000000	 7.339090000000000	 0.000000000000000	 0.000000000000000	 0.000000000000000	 
7.339090000000000	 7.431990000000000	 7.524890000000000	 0.000000000000000	 0.000000000000000	 0.000000000000000	 
7.524890000000000	 7.620142000000000	 7.715394000000000	 0.000000000000000	 0.000000000000000	 0.000000000000000	 
7.715394000000000	 7.813057000000000	 7.910720000000000	 0.000000000000000	 0.000000000000000	 0.000000000000000	 
7.910720000000000	 8.010856000000000	 8.110991000000000	 0.000000000000000	 0.000000000000000	 0.000000000000000	 
8.110991000000000	 8.213661999999999	 8.316333000000000	 0.000000000000000	 0.000000000000000	 0.000000000000000	 
8.316333000000000	 8.421602999999999	 8.526873000000000	 0.000000000000000	 0.000000000000000	 0.000000000000000	 
8.526873000000000	 8.634808000000000	 8.742743000000001	 0.000000000000000	 0.000000000000000	 0.000000000000000	 
8.742743000000001	 8.853410999999999	 8.964078000000001	 0.000000000000000	 0.000000000000000	 0.000000000000000	 
8.964078000000001	 9.077548000000000	 9.191017000000000	 0.000000000000000	 0.000000000000000	 0.000000000000000	 
9.191017000000000	 9.307359000000000	 9.423700999999999	 0.000000000000000	 0.000000000000000	 0.000000000000000	 
9.423700999999999	 9.542989000000000	 9.662276000000000	 0.000000000000000	 0.000000000000000	 0.000000000000000	 
9.662276000000000	 9.784583000000000	 9.906890000000001	 0.000000000000000	 0.000000000000000	 0.000000000000000	 
9.906890000000001	 10.032294000000000	 10.157698000000000	 0.000000000000000	 0.000000000000000	 0.000000000000000	 
10.157698000000000	 10.286276000000001	 10.414854999999999	 0.000000000000000	 0.000000000000000	 0.000000000000000	 
10.414854999999999	 10.546688000000000	 10.678521999999999	 0.000000000000000	 0.000000000000000	 0.000000000000000	 
10.678521999999999	 10.813693000000001	 10.948864000000000	 0.000000000000000	 0.000000000000000	 0.000000000000000	 
10.948864000000000	 11.087457000000001	 11.226051000000000	 0.000000000000000	 0.000000000000000	 0.000000000000000	 
11.226051000000000	 11.368153000000000	 11.510255000000001	 0.000000000000000	 0.000000000000000	 0.000000000000000	 
11.510255000000001	 11.655953999999999	 11.801653000000000	 0.000000000000000	 0.000000000000000	 0.000000000000000	 
11.801653000000000	 11.951041000000000	 12.100429000000000	 0.000000000000000	 0.000000000000000	 0.000000000000000	 
12.100429000000000	 12.253598999999999	 12.406769000000001	 0.000000000000000	 0.000000000000000	 0.000000000000000	 
12.406769000000001	 12.563817000000000	 12.720865000000000	 0.000000000000000	 0.000000000000000	 0.000000000000000	 
12.720865000000000	 12.881888000000000	 13.042911999999999	 0.000000000000000	 0.000000000000000	 0.000000000000000	 
13.042911999999999	 13.208012000000000	 13.373112000000001	 0.000000000000000	 0.000000000000000	 0.000000000000000	 
13.373112000000001	 13.542392000000000	 13.711672000000000	 0.000000000000000	 0.000000000000000	 0.000000000000000	 
13.711672000000000	 13.885237999999999	 14.058802999999999	 0.000000000000000	 0.000000000000000	 0.000000000000000	 
14.058802999999999	 14.236763000000000	 14.414721999999999	 0.000000000000000	 0.000000000000000	 0.000000000000000	 
14.414721999999999	 14.597187000000000	 14.779652000000000	 0.000000000000000	 0.000000000000000	 0.000000000000000	 
14.779652000000000	 14.966735999999999	 15.153820000000000	 0.000000000000000	 0.000000000000000	 0.000000000000000	 
15.153820000000000	 15.345641000000001	 15.537461000000000	 0.000000000000000	 0.000000000000000	 0.000000000000000	 
15.537461000000000	 15.734138000000000	 15.930815000000001	 0.000000000000000	 0.000000000000000	 0.000000000000000	 
15.930815000000001	 16.132470999999999	 16.334126000000001	 0.000000000000000	 0.000000000000000	 0.000000000000000	 
16.334126000000001	 16.540887999999999	 16.747648999999999	 0.000000000000000	 0.000000000000000	 0.000000000000000	 
16.747648999999999	 16.959644000000001	 17.171640000000000	 0.000000000000000	 0.000000000000000	 0.000000000000000	 
17.171640000000000	 17.389002000000001	 17.606365000000000	 0.000000000000000	 0.000000000000000	 0.000000000000000	 
17.606365000000000	 17.829229999999999	 18.052095999999999	 0.000000000000000	 0.000000000000000	 0.000000000000000	 
18.052095999999999	 18.280602999999999	 18.509111000000001	 0.000000000000000	 0.000000000000000	 0.000000000000000	 
18.509111000000001	 18.743403000000001	 18.977696000000002	 0.000000000000000	 0.000000000000000	 0.000000000000000	 
18.977696000000002	 19.217919999999999	 19.458144000000001	 0.000000000000000	 0.000000000000000	 0.000000000000000	 
19.458144000000001	 19.704449000000000	 19.950755000000001	 0.000000000000000	 0.000000000000000	 0.000000000000000	 
19.950755000000001	 20.203296000000002	 20.455836999999999	 0.000000000000000	 0.000000000000000	 0.000000000000000	 
20.455836999999999	 20.714772000000000	 20.973707000000001	 0.000000000000000	 0.000000000000000	 0.000000000000000	 
20.973707000000001	 21.239197000000001	 21.504687000000001	 0.000000000000000	 0.000000000000000	 0.000000000000000	 
21.504687000000001	 21.776897999999999	 22.049109000000001	 0.000000000000000	 0.000000000000000	 0.000000000000000	 
22.049109000000001	 22.328212000000001	 22.607313999999999	 0.000000000000000	 0.000000000000000	 0.000000000000000	 
22.607313999999999	 22.893483000000000	 23.179651000000000	 0.000000000000000	 0.000000000000000	 0.000000000000000	 
23.179651000000000	 23.473064999999998	 23.766477999999999	 0.000000000000000	 0.000000000000000	 0.000000000000000	 
23.766477999999999	 24.067319000000001	 24.368161000000001	 0.000000000000000	 0.000000000000000	 0.000000000000000	 
24.368161000000001	 24.676618999999999	 24.985075999999999	 0.000000000000000	 0.000000000000000	 0.000000000000000	 
24.985075999999999	 25.301342999999999	 25.617609999999999	 0.000000000000000	 0.000000000000000	 0.000000000000000	 
25.617609999999999	 25.941884000000002	 26.266157000000000	 0.000000000000000	 0.000000000000000	 0.000000000000000	 
26.266157000000000	 26.598640000000000	 26.931122999999999	 0.000000000000000	 0.000000000000000	 0.000000000000000	 
26.931122999999999	 27.272023000000001	 27.612924000000000	 0.000000000000000	 0.000000000000000	 0.000000000000000	 
27.612924000000000	 27.962454000000001	 28.311985000000000	 0.000000000000000	 0.000000000000000	 0.000000000000000	 
28.311985000000000	 28.670365000000000	 29.028744000000000	 0.000000000000000	 0.000000000000000	 0.000000000000000	 
29.028744000000000	 29.396197000000001	 29.763649000000001	 0.000000000000000	 0.000000000000000	 0.000000000000000	 
29.763649000000001	 30.140404000000000	 30.517158999999999	 0.000000000000000	 0.000000000000000	 0.000000000000000	 
30.517158999999999	 30.903452000000001	 31.289745000000000	 0.000000000000000	 0.000000000000000	 0.000000000000000	 
31.289745000000000	 31.685818000000001	 32.081890999999999	 0.000000000000000	 0.000000000000000	 0.000000000000000	 
32.081890999999999	 32.487991000000001	 32.894091000000003	 0.000000000000000	 0.000000000000000	 0.000000000000000	 
32.894091000000003	 33.310471999999997	 33.726852000000001	 0.000000000000000	 0.000000000000000	 0.000000000000000	 
33.726852000000001	 34.153775000000003	 34.580697000000001	 0.000000000000000	 0.000000000000000	 0.000000000000000	 
34.580697000000001	 35.018427000000003	 35.456158000000002	 0.000000000000000	 0.000000000000000	 0.000000000000000	 
35.456158000000002	 35.904969999999999	 36.353782000000002	 0.000000000000000	 0.000000000000000	 0.000000000000000	 
36.353782000000002	 36.813955999999997	 37.274130999999997	 0.000000000000000	 0.000000000000000	 0.000000000000000	 
37.274130999999997	 37.745955000000002	 38.217779999999998	 0.000000000000000	 0.000000000000000	 0.000000000000000	 
38.217779999999998	 38.701549000000000	 39.185318000000002	 0.000000000000000	 0.000000000000000	 0.000000000000000	 
39.185318000000002	 39.681334999999997	 40.177351999999999	 0.000000000000000	 0.000000000000000	 0.000000000000000	 
40.177351999999999	 40.685926000000002	 41.194499999999998	 0.000000000000000	 0.000000000000000	 0.000000000000000	 
41.194499999999998	 41.715949000000002	 42.237399000000003	 0.000000000000000	 0.000000000000000	 0.000000000000000	 
42.237399000000003	 42.772049000000003	 43.306699999999999	 0.000000000000000	 0.000000000000000	 0.000000000000000	 
43.306699999999999	 43.854886000000000	 44.403072000000002	 0.000000000000000	 0.000000000000000	 0.000000000000000	 
44.403072000000002	 44.965136000000001	 45.527200000000001	 0.000000000000000	 0.000000000000000	 0.000000000000000	 
45.527200000000001	 46.103493999999998	 46.679788000000002	 0.000000000000000	 0.000000000000000	 0.000000000000000	 
46.679788000000002	 47.270671000000000	 47.861553999999998	 0.000000000000000	 0.000000000000000	 0.000000000000000	 
47.861553999999998	 48.467396999999998	 49.073239000000001	 0.000000000000000	 0.000000000000000	 0.000000000000000	 
49.073239000000001	 49.694420000000001	 50.315600000000003	 0.000000000000000	 0.000000000000000	 0.000000000000000	 
50.315600000000003	 50.952506000000000	 51.589412000000003	 0.000000000000000	 0.000000000000000	 0.000000000000000	 
51.589412000000003	 52.242443000000002	 52.895474000000000	 0.000000000000000	 0.000000000000000	 0.000000000000000	 
52.895474000000000	 53.565036999999997	 54.234599000000003	 0.000000000000000	 0.000000000000000	 0.000000000000000	 
54.234599000000003	 54.921112999999998	 55.607627000000001	 0.000000000000000	 0.000000000000000	 0.000000000000000	 
55.607627000000001	 56.311520999999999	 57.015414999999997	 0.000000000000000	 0.000000000000000	 0.000000000000000	 
57.015414999999997	 57.737129000000003	 58.458843999999999	 0.000000000000000	 0.000000000000000	 0.000000000000000	 
58.458843999999999	 59.198829000000003	 59.938814000000001	 0.000000000000000	 0.000000000000000	 0.000000000000000	 
59.938814000000001	 60.697533000000000	 61.456252999999997	 0.000000000000000	 0.000000000000000	 0.000000000000000	 
61.456252999999997	 62.234180000000002	 63.012107000000000	 0.000000000000000	 0.000000000000000	 0.000000000000000	 
63.012107000000000	 63.809728999999997	 64.607349999999997	 19.421782967999999	 352893.089614888129290	 0.000000000000000	 
64.607349999999997	 65.425165000000007	 66.242979000000005	 0.000000000000000	 0.000000000000000	 0.000000000000000	 
66.242979000000005	 67.081497999999996	 67.920017000000001	 0.000000000000000	 0.000000000000000	 0.000000000000000	 
67.920017000000001	 68.779764000000000	 69.639510999999999	 0.000000000000000	 0.000000000000000	 0.000000000000000	 
69.639510999999999	 70.521023999999997	 71.402536999999995	 0.000000000000000	 0.000000000000000	 0.000000000000000	 
71.402536999999995	 72.306365999999997	 73.210195999999996	 5.450082897000000	 87391.160226761654485	 0.000000000000000	 
73.210195999999996	 74.136906999999994	 75.063618000000005	 10.459005414000000	 163567.486097278335365	 0.000000000000000	 
75.063618000000005	 76.013790999999998	 76.963963000000007	 15.010014554999998	 228944.157851428841241	 0.000000000000000	 
76.963963000000007	 77.938191000000003	 78.912418000000002	 19.085791940000000	 283923.088077328633517	 0.000000000000000	 
78.912418000000002	 79.911309000000003	 80.910201000000001	 9.067374532000001	 131557.056098134169588	 0.000000000000000	 
80.910201000000001	 81.934381000000002	 82.958560000000006	 12.869721269999999	 182114.267631032387726	 0.000000000000000	 
82.958560000000006	 84.008668999999998	 85.058777000000006	 16.159821544000000	 223024.870508032239741	 0.000000000000000	 
85.058777000000006	 86.135469999999998	 87.212164000000001	 0.000000000000000	 0.000000000000000	 0.000000000000000	 
87.212164000000001	 88.316114999999996	 89.420067000000003	 0.000000000000000	 0.000000000000000	 0.000000000000000	 
89.420067000000003	 90.551965999999993	 91.683865999999995	 9.754464291000001	 124895.406081240173080	 0.000000000000000	 
91.683865999999995	 92.844420999999997	 94.004975999999999	 11.900989080000000	 148616.913983995007584	 0.000000000000000	 
94.004975999999999	 95.194913000000000	 96.384849000000003	 2.692012984000000	 32787.195726441015722	 0.000000000000000	 
96.384849000000003	 97.604910000000004	 98.824972000000002	 12.008041725000000	 142640.014636468171375	 0.000000000000000	 
98.824972000000002	 100.075920999999994	 101.326870000000000	 8.452041688000000	 97920.345111672490020	 0.000000000000000	 
101.326870000000000	 102.609488999999996	 103.892106999999996	 22.953274454000002	 259357.050835651345551	 0.000000000000000	 
103.892106999999996	 105.207196999999994	 106.522287000000006	 16.477161207999998	 181584.102834863413591	 0.000000000000000	 
106.522287000000006	 107.870670000000004	 109.219054000000000	 8.127780127999999	 87359.356517304579029	 0.000000000000000	 
109.219054000000000	 110.601573000000002	 111.984093000000001	 22.038980050999999	 231031.466815120569663	 0.000000000000000	 
111.984093000000001	 113.401612999999998	 114.819132999999994	 11.846539350000000	 121119.261870701666339	 0.000000000000000	 
114.819132999999994	 116.272540000000006	 117.725947000000005	 19.445655840000001	 193903.771710493834689	 0.000000000000000	 
117.725947000000005	 119.216149000000001	 120.706350999999998	 22.967424600000001	 223366.514128257316770	 0.000000000000000	 
120.706350999999998	 122.234279000000001	 123.762208000000001	 33.886142964000001	 321417.868190423061606	 0.000000000000000	 
123.762208000000001	 125.328817999999998	 126.895427999999995	 35.157225566999998	 325240.492667219194118	 0.000000000000000	 
126.895427999999995	 128.501699000000002	 130.107970999999992	 56.338852230000001	 508323.222308687865734	 0.000000000000000	 
130.107970999999992	 131.754907000000003	 133.401843000000014	 69.558409713000003	 612102.045490108896047	 5411155.720106664113700	 
