/LowerBinDiameter_[nm]	 CenterBinDiameter_[nm]	 UpperBinDiameter_[nm]	 TotalParticlesCounted_WithinBin_AllVideosAnalyzed	 PSD_corrected_[counts/mL/nm]	 PSD_corrected_LT_[counts/mL/nm]	 
2.000000000000000	 2.100000000000000	 2.200000000000000	 0.000000000000000	 0.000000000000000	 0.000000000000000	 
2.200000000000000	 2.310000000000000	 2.420000000000000	 0.000000000000000	 0.000000000000000	 0.000000000000000	 
2.420000000000000	 2.541000000000000	 2.662000000000000	 0.000000000000000	 0.000000000000000	 0.000000000000000	 
2.662000000000000	 2.795100000000000	 2.928200000000000	 0.000000000000000	 0.000000000000000	 0.000000000000000	 
2.928200000000000	 3.074610000000000	 3.221020000000000	 0.000000000000000	 0.000000000000000	 0.000000000000000	 
3.221020000000000	 3.382071000000000	 3.543122000000000	 0.000000000000000	 0.000000000000000	 0.000000000000000	 
3.543122000000000	 3.720278100000000	 3.897434200000000	 0.000000000000000	 0.000000000000000	 0.000000000000000	 
3.897434200000000	 4.092305910000000	 4.287177620000000	 0.000000000000000	 0.000000000000000	 0.000000000000000	 
4.287177620000000	 4.501536501000000	 4.715895382000000	 0.000000000000000	 0.000000000000000	 0.000000000000000	 
4.715895382000000	 4.951690151000000	 5.187484920000000	 0.000000000000000	 0.000000000000000	 0.000000000000000	 
5.187484920000000	 5.446859166000000	 5.706233412000000	 0.000000000000000	 0.000000000000000	 0.000000000000000	 
5.706233412000000	 5.991545083000000	 6.276856753000000	 0.000000000000000	 0.000000000000000	 0.000000000000000	 
6.276856753000000	 6.590699591000000	 6.904542429000000	 0.000000000000000	 0.000000000000000	 0.000000000000000	 
6.904542429000000	 7.249769550000000	 7.594996672000000	 0.000000000000000	 0.000000000000000	 0.000000000000000	 
7.594996672000000	 7.974746505000000	 8.354496339000001	 0.000000000000000	 0.000000000000000	 0.000000000000000	 
8.354496339000001	 8.772221156000001	 9.189945973000000	 0.000000000000000	 0.000000000000000	 0.000000000000000	 
9.189945973000000	 9.649443271000001	 10.108940570000000	 0.000000000000000	 0.000000000000000	 0.000000000000000	 
10.108940570000000	 10.614387600000001	 11.119834630000000	 0.000000000000000	 0.000000000000000	 0.000000000000000	 
11.119834630000000	 11.675826360000000	 12.231818090000001	 0.000000000000000	 0.000000000000000	 0.000000000000000	 
12.231818090000001	 12.843408990000000	 13.454999900000001	 0.000000000000000	 0.000000000000000	 0.000000000000000	 
13.454999900000001	 14.127749890000000	 14.800499889999999	 0.000000000000000	 0.000000000000000	 0.000000000000000	 
14.800499889999999	 15.540524880000000	 16.280549879999999	 0.000000000000000	 0.000000000000000	 0.000000000000000	 
16.280549879999999	 17.094577370000000	 17.908604870000001	 1.000000000000000	 8901.882130644973586	 0.000000000000000	 
17.908604870000001	 18.804035110000001	 19.699465350000001	 2.000000000000000	 16185.240318875552475	 0.000000000000000	 
19.699465350000001	 20.684438620000002	 21.669411889999999	 1.000000000000000	 7356.927372855718204	 0.000000000000000	 
21.669411889999999	 22.752882480000000	 23.836353079999999	 1.000000000000000	 6688.115805850923607	 0.000000000000000	 
23.836353079999999	 25.028170729999999	 26.219988380000000	 1.000000000000000	 6080.105301003218301	 0.000000000000000	 
26.219988380000000	 27.530987799999998	 28.841987220000000	 0.000000000000000	 0.000000000000000	 0.000000000000000	 
28.841987220000000	 30.284086580000000	 31.726185940000001	 5.000000000000000	 25124.402009283883672	 0.000000000000000	 
31.726185940000001	 33.312495239999997	 34.898804540000000	 2.000000000000000	 9136.146162156652281	 0.000000000000000	 
34.898804540000000	 36.643744759999997	 38.388684990000002	 0.000000000000000	 0.000000000000000	 0.000000000000000	 
38.388684990000002	 40.308119240000003	 42.227553489999998	 3.000000000000000	 11325.801045168715063	 0.000000000000000	 
42.227553489999998	 44.338931170000002	 46.450308839999998	 7.000000000000000	 24024.426459448768583	 0.000000000000000	 
46.450308839999998	 48.772824280000002	 51.095339719999998	 5.000000000000000	 15600.276938512415654	 0.000000000000000	 
51.095339719999998	 53.650106710000003	 56.204873700000000	 7.000000000000000	 19854.897875112830661	 0.000000000000000	 
56.204873700000000	 59.015117380000000	 61.825361070000000	 9.000000000000000	 23207.023523423675215	 0.000000000000000	 
61.825361070000000	 64.916629119999996	 68.007897170000007	 10.000000000000000	 23441.437928989027569	 0.000000000000000	 
68.007897170000007	 71.408292029999998	 74.808686890000004	 18.000000000000000	 38358.716554669685138	 0.000000000000000	 
74.808686890000004	 78.549121229999997	 82.289555579999998	 27.000000000000000	 52307.340770352071559	 0.000000000000000	 
82.289555579999998	 86.404033360000000	 90.518511140000001	 25.000000000000000	 44029.748117841336352	 0.000000000000000	 
90.518511140000001	 95.044436689999998	 99.570362250000002	 45.000000000000000	 72048.678786043165019	 0.000000000000000	 
99.570362250000002	 104.548880400000002	 109.527398500000004	 67.000000000000000	 97520.433628392493119	 0.000000000000000	 
109.527398500000004	 115.003768399999998	 120.480138299999993	 136.000000000000000	 179956.296665937872604	 0.000000000000000	 
120.480138299999993	 126.504145199999996	 132.528152199999994	 247.000000000000000	 297120.353166884684470	 1350743.073948856675997	 
132.528152199999994	 139.154559799999987	 145.780967400000009	 380.000000000000000	 415552.944314170163125	 18419223.860751438885927	 
145.780967400000009	 153.070015699999999	 160.359064100000012	 441.000000000000000	 438418.298310923215467	 19774751.184992343187332	 
160.359064100000012	 168.377017300000006	 176.394970499999999	 345.000000000000000	 311800.273416412819643	 13627761.055071800947189	 
176.394970499999999	 185.214719000000002	 194.034467599999999	 183.000000000000000	 150354.281531273270957	 6501962.054449333809316	 
194.034467599999999	 203.736190899999997	 213.437914299999989	 73.000000000000000	 54524.901212151868094	 2516115.551305311266333	 
213.437914299999989	 224.109810000000010	 234.781705799999997	 25.000000000000000	 16975.373872992997349	 726151.669835567707196	 
234.781705799999997	 246.520791000000003	 258.259876299999974	 9.000000000000000	 5555.576939382725868	 264055.154354505066294	 
258.259876299999974	 271.172870199999977	 284.085864000000015	 5.000000000000000	 2805.846922785528932	 150031.336830025451491	 
284.085864000000015	 298.290157200000010	 312.494450400000005	 3.000000000000000	 1530.461961654144034	 54556.849890803474409	 
312.494450400000005	 328.119172900000024	 343.743895399999985	 2.000000000000000	 927.552705220103235	 49597.136327852262184	 
343.743895399999985	 360.931090200000028	 378.118284899999992	 0.000000000000000	 0.000000000000000	 0.000000000000000	 
378.118284899999992	 397.024199199999998	 415.930113399999982	 0.000000000000000	 0.000000000000000	 0.000000000000000	 
415.930113399999982	 436.726619099999994	 457.523124800000005	 0.000000000000000	 0.000000000000000	 0.000000000000000	 
457.523124800000005	 480.399280999999974	 503.275437300000021	 0.000000000000000	 0.000000000000000	 0.000000000000000	 
503.275437300000021	 528.439209099999971	 553.602981000000000	 0.000000000000000	 0.000000000000000	 0.000000000000000	 
553.602981000000000	 581.283130000000028	 608.963279100000022	 1.000000000000000	 261.789660110020236	 0.000000000000000	 
608.963279100000022	 639.411442999999963	 669.859606999999983	 0.000000000000000	 0.000000000000000	 0.000000000000000	 
669.859606999999983	 703.352587299999982	 736.845567699999947	 0.000000000000000	 0.000000000000000	 0.000000000000000	 
736.845567699999947	 773.687846100000002	 810.530124500000056	 0.000000000000000	 0.000000000000000	 0.000000000000000	 
810.530124500000056	 851.056630700000028	 891.583136900000000	 0.000000000000000	 0.000000000000000	 0.000000000000000	 
891.583136900000000	 936.162293800000043	 980.741450600000007	 0.000000000000000	 0.000000000000000	 0.000000000000000	 
980.741450600000007	 1029.778522999999950	 1078.815595999999914	 0.000000000000000	 0.000000000000000	 0.000000000000000	 
1078.815595999999914	 1132.756374999999935	 1186.697155000000066	 0.000000000000000	 0.000000000000000	 0.000000000000000	 
1186.697155000000066	 1246.032013000000006	 1305.366870999999946	 0.000000000000000	 0.000000000000000	 0.000000000000000	 
1305.366870999999946	 1370.635213999999905	 1435.903557999999975	 0.000000000000000	 0.000000000000000	 0.000000000000000	 
1435.903557999999975	 1507.698736000000054	 1579.493913999999904	 0.000000000000000	 0.000000000000000	 0.000000000000000	 
1579.493913999999904	 1658.468609000000015	 1737.443305000000009	 0.000000000000000	 0.000000000000000	 0.000000000000000	 
1737.443305000000009	 1824.315470000000005	 1911.187635000000000	 0.000000000000000	 0.000000000000000	 0.000000000000000	 
1911.187635000000000	 2006.747016999999914	 2102.306399000000056	 0.000000000000000	 0.000000000000000	 0.000000000000000	 
2102.306399000000056	 2207.421718999999939	 2312.537038999999822	 0.000000000000000	 0.000000000000000	 0.000000000000000	 
2312.537038999999822	 2428.163891000000149	 2543.790743000000020	 0.000000000000000	 0.000000000000000	 0.000000000000000	 
2543.790743000000020	 2670.980280000000221	 2798.169816999999966	 0.000000000000000	 0.000000000000000	 0.000000000000000	 
2798.169816999999966	 2938.078308000000106	 3077.986798999999792	 0.000000000000000	 0.000000000000000	 0.000000000000000	 
3077.986798999999792	 3231.886139000000185	 3385.785479000000123	 0.000000000000000	 0.000000000000000	 0.000000000000000	 
3385.785479000000123	 3555.074752999999873	 3724.364027000000078	 0.000000000000000	 0.000000000000000	 0.000000000000000	 
3724.364027000000078	 3910.582228000000214	 4096.800428999999895	 0.000000000000000	 0.000000000000000	 0.000000000000000	 
4096.800428999999895	 4301.640451000000212	 4506.480472000000191	 0.000000000000000	 0.000000000000000	 0.000000000000000	 
4506.480472000000191	 4731.804495999999745	 4957.128518999999869	 0.000000000000000	 0.000000000000000	 0.000000000000000	 
4957.128518999999869	 5204.984945000000153	 5452.841371000000436	 0.000000000000000	 0.000000000000000	 0.000000000000000	 
5452.841371000000436	 5725.483439999999973	 5998.125508000000082	 0.000000000000000	 0.000000000000000	 0.000000000000000	 
5998.125508000000082	 6298.031783999999789	 6597.938059000000067	 0.000000000000000	 0.000000000000000	 0.000000000000000	 
6597.938059000000067	 6927.834961999999905	 7257.731864999999743	 0.000000000000000	 0.000000000000000	 0.000000000000000	 
7257.731864999999743	 7620.618457999999919	 7983.505052000000433	 0.000000000000000	 0.000000000000000	 0.000000000000000	 
7983.505052000000433	 8382.680303999999524	 8781.855557000000772	 0.000000000000000	 0.000000000000000	 0.000000000000000	 
8781.855557000000772	 9220.948334999999133	 9660.041112000000794	 0.000000000000000	 0.000000000000000	 0.000000000000000	 
9660.041112000000794	 10143.043170000000828	 10626.045219999999972	 0.000000000000000	 0.000000000000000	 0.000000000000000	 
10626.045219999999972	 11157.347480000000360	 11688.649750000000495	 0.000000000000000	 0.000000000000000	 0.000000000000000	 
11688.649750000000495	 12273.082229999999981	 12857.514719999999215	 0.000000000000000	 0.000000000000000	 0.000000000000000	 
12857.514719999999215	 13500.390460000000530	 14143.266190000000279	 0.000000000000000	 0.000000000000000	 0.000000000000000	 
14143.266190000000279	 14850.429500000000189	 15557.592810000000100	 0.000000000000000	 0.000000000000000	 0.000000000000000	 
15557.592810000000100	 16335.472449999999299	 17113.352090000000317	 0.000000000000000	 0.000000000000000	 0.000000000000000	 
17113.352090000000317	 17969.019700000000739	 18824.687300000001414	 0.000000000000000	 0.000000000000000	 0.000000000000000	 
18824.687300000001414	 19765.921669999999722	 20707.156029999998282	 0.000000000000000	 0.000000000000000	 0.000000000000000	 
