/LowerBin_[mL]	 CenterBin_[mL]	 UpperBin_[mL]	 Volume_WithinBin_AllVideosAnalyzed	 PVD_[nm^3/mL/nm]	 
2.000000000000000e+00	 2.025316000000000e+00	 2.050633000000000e+00	 0.000000000000000e+00	 0.000000000000000e+00	 
2.050633000000000e+00	 2.076590000000000e+00	 2.102548000000000e+00	 0.000000000000000e+00	 0.000000000000000e+00	 
2.102548000000000e+00	 2.129162080000000e+00	 2.155777310000000e+00	 0.000000000000000e+00	 0.000000000000000e+00	 
2.155777310000000e+00	 2.183065104000000e+00	 2.210354203000000e+00	 0.000000000000000e+00	 0.000000000000000e+00	 
2.210354203000000e+00	 2.238332766000000e+00	 2.266312797000000e+00	 0.000000000000000e+00	 0.000000000000000e+00	 
2.266312797000000e+00	 2.294999614000000e+00	 2.323688070000000e+00	 0.000000000000000e+00	 0.000000000000000e+00	 
2.323688070000000e+00	 2.353101071000000e+00	 2.382515889000000e+00	 0.000000000000000e+00	 0.000000000000000e+00	 
2.382515889000000e+00	 2.412673456000000e+00	 2.442833026000000e+00	 0.000000000000000e+00	 0.000000000000000e+00	 
2.442833026000000e+00	 2.473754008000000e+00	 2.504677187000000e+00	 0.000000000000000e+00	 0.000000000000000e+00	 
2.504677187000000e+00	 2.536380908000000e+00	 2.568087030000000e+00	 0.000000000000000e+00	 0.000000000000000e+00	 
2.568087030000000e+00	 2.600593305000000e+00	 2.633102192000000e+00	 0.000000000000000e+00	 0.000000000000000e+00	 
2.633102192000000e+00	 2.666431338000000e+00	 2.699763316000000e+00	 0.000000000000000e+00	 0.000000000000000e+00	 
2.699763316000000e+00	 2.733936162000000e+00	 2.768112071000000e+00	 0.000000000000000e+00	 0.000000000000000e+00	 
2.768112071000000e+00	 2.803149975000000e+00	 2.838191182000000e+00	 0.000000000000000e+00	 0.000000000000000e+00	 
2.838191182000000e+00	 2.874116042000000e+00	 2.910044457000000e+00	 0.000000000000000e+00	 0.000000000000000e+00	 
2.910044457000000e+00	 2.946878725000000e+00	 2.983716810000000e+00	 0.000000000000000e+00	 0.000000000000000e+00	 
2.983716810000000e+00	 3.021483508000000e+00	 3.059254294000000e+00	 0.000000000000000e+00	 0.000000000000000e+00	 
3.059254294000000e+00	 3.097977025000000e+00	 3.136704129000000e+00	 0.000000000000000e+00	 0.000000000000000e+00	 
3.136704129000000e+00	 3.176407095000000e+00	 3.216114728000000e+00	 0.000000000000000e+00	 0.000000000000000e+00	 
3.216114728000000e+00	 3.256822742000000e+00	 3.297535731000000e+00	 0.000000000000000e+00	 0.000000000000000e+00	 
3.297535731000000e+00	 3.339274236000000e+00	 3.381018035000000e+00	 0.000000000000000e+00	 0.000000000000000e+00	 
3.381018035000000e+00	 3.423813116000000e+00	 3.466613825000000e+00	 0.000000000000000e+00	 0.000000000000000e+00	 
3.466613825000000e+00	 3.510492229000000e+00	 3.554376606000000e+00	 0.000000000000000e+00	 0.000000000000000e+00	 
3.554376606000000e+00	 3.599365757000000e+00	 3.644361241000000e+00	 0.000000000000000e+00	 0.000000000000000e+00	 
3.644361241000000e+00	 3.690489256000000e+00	 3.736623978000000e+00	 0.000000000000000e+00	 0.000000000000000e+00	 
3.736623978000000e+00	 3.783919686000000e+00	 3.831222492000000e+00	 0.000000000000000e+00	 0.000000000000000e+00	 
3.831222492000000e+00	 3.879715452000000e+00	 3.928215916000000e+00	 0.000000000000000e+00	 0.000000000000000e+00	 
3.928215916000000e+00	 3.977936436000000e+00	 4.027664881000000e+00	 0.000000000000000e+00	 0.000000000000000e+00	 
4.027664881000000e+00	 4.078644036000000e+00	 4.129631553000000e+00	 0.000000000000000e+00	 0.000000000000000e+00	 
4.129631553000000e+00	 4.181901204000000e+00	 4.234179671000000e+00	 0.000000000000000e+00	 0.000000000000000e+00	 
4.234179671000000e+00	 4.287772486000000e+00	 4.341374590000000e+00	 0.000000000000000e+00	 0.000000000000000e+00	 
4.341374590000000e+00	 4.396324064000000e+00	 4.451283317000000e+00	 0.000000000000000e+00	 0.000000000000000e+00	 
4.451283317000000e+00	 4.507623792000000e+00	 4.563974556000000e+00	 0.000000000000000e+00	 0.000000000000000e+00	 
4.563974556000000e+00	 4.621741244000000e+00	 4.679518751000000e+00	 0.000000000000000e+00	 0.000000000000000e+00	 
4.679518751000000e+00	 4.738747756000000e+00	 4.797988128000000e+00	 0.000000000000000e+00	 0.000000000000000e+00	 
4.797988128000000e+00	 4.858716468000000e+00	 4.919456745000000e+00	 0.000000000000000e+00	 0.000000000000000e+00	 
4.919456745000000e+00	 4.981722374000000e+00	 5.044000531000000e+00	 0.000000000000000e+00	 0.000000000000000e+00	 
5.044000531000000e+00	 5.107842363000000e+00	 5.171697338000000e+00	 0.000000000000000e+00	 0.000000000000000e+00	 
5.171697338000000e+00	 5.237155275000000e+00	 5.302626991000000e+00	 0.000000000000000e+00	 0.000000000000000e+00	 
5.302626991000000e+00	 5.369741943000000e+00	 5.436871335000000e+00	 0.000000000000000e+00	 0.000000000000000e+00	 
5.436871335000000e+00	 5.505685247000000e+00	 5.574514285000000e+00	 0.000000000000000e+00	 0.000000000000000e+00	 
5.574514285000000e+00	 5.645070165000000e+00	 5.715641882000000e+00	 0.000000000000000e+00	 0.000000000000000e+00	 
5.715641882000000e+00	 5.787983828000000e+00	 5.860342347000000e+00	 0.000000000000000e+00	 0.000000000000000e+00	 
5.860342347000000e+00	 5.934515570000000e+00	 6.008706132000000e+00	 0.000000000000000e+00	 0.000000000000000e+00	 
6.008706132000000e+00	 6.084756990000000e+00	 6.160825979000000e+00	 0.000000000000000e+00	 0.000000000000000e+00	 
6.160825979000000e+00	 6.238802003000000e+00	 6.316796980000000e+00	 0.000000000000000e+00	 0.000000000000000e+00	 
6.316796980000000e+00	 6.396746904000000e+00	 6.476716631000000e+00	 0.000000000000000e+00	 0.000000000000000e+00	 
6.476716631000000e+00	 6.558690423000000e+00	 6.640684901000000e+00	 0.000000000000000e+00	 0.000000000000000e+00	 
6.640684901000000e+00	 6.724733792000000e+00	 6.808804285000000e+00	 0.000000000000000e+00	 0.000000000000000e+00	 
6.808804285000000e+00	 6.894980806000000e+00	 6.981179875000000e+00	 0.000000000000000e+00	 0.000000000000000e+00	 
6.981179875000000e+00	 7.069537885000000e+00	 7.157919425000000e+00	 0.000000000000000e+00	 0.000000000000000e+00	 
7.157919425000000e+00	 7.248514147000000e+00	 7.339133415000000e+00	 0.000000000000000e+00	 0.000000000000000e+00	 
7.339133415000000e+00	 7.432021468000000e+00	 7.524935121000000e+00	 0.000000000000000e+00	 0.000000000000000e+00	 
7.524935121000000e+00	 7.620174561000000e+00	 7.715440690000000e+00	 0.000000000000000e+00	 0.000000000000000e+00	 
7.715440690000000e+00	 7.813091039000000e+00	 7.910769208000000e+00	 0.000000000000000e+00	 0.000000000000000e+00	 
7.910769208000000e+00	 8.010891495999999e+00	 8.111042774000000e+00	 0.000000000000000e+00	 0.000000000000000e+00	 
8.111042774000000e+00	 8.213699576000000e+00	 8.316386580000000e+00	 0.000000000000000e+00	 0.000000000000000e+00	 
8.316386580000000e+00	 8.421642057000000e+00	 8.526928988000000e+00	 0.000000000000000e+00	 0.000000000000000e+00	 
8.526928988000000e+00	 8.634848921000000e+00	 8.742801608000001e+00	 0.000000000000000e+00	 0.000000000000000e+00	 
8.742801608000001e+00	 8.853453447000000e+00	 8.964139382999999e+00	 0.000000000000000e+00	 0.000000000000000e+00	 
8.964139382999999e+00	 9.077592284000000e+00	 9.191080672000000e+00	 0.000000000000000e+00	 0.000000000000000e+00	 
9.191080672000000e+00	 9.307405541000000e+00	 9.423767335999999e+00	 0.000000000000000e+00	 0.000000000000000e+00	 
9.423767335999999e+00	 9.543036875000000e+00	 9.662344830000000e+00	 0.000000000000000e+00	 0.000000000000000e+00	 
9.662344830000000e+00	 9.784633581000000e+00	 9.906962288000001e+00	 0.000000000000000e+00	 0.000000000000000e+00	 
9.906962288000001e+00	 1.003234668000000e+01	 1.015777262000000e+01	 0.000000000000000e+00	 0.000000000000000e+00	 
1.015777262000000e+01	 1.028633102000000e+01	 1.041493261000000e+01	 0.000000000000000e+00	 0.000000000000000e+00	 
1.041493261000000e+01	 1.054674536000000e+01	 1.067860302000000e+01	 0.000000000000000e+00	 0.000000000000000e+00	 
1.067860302000000e+01	 1.081375250000000e+01	 1.094894865000000e+01	 0.000000000000000e+00	 0.000000000000000e+00	 
1.094894865000000e+01	 1.108751933000000e+01	 1.122613851000000e+01	 0.000000000000000e+00	 0.000000000000000e+00	 
1.122613851000000e+01	 1.136821699000000e+01	 1.151034586000000e+01	 0.000000000000000e+00	 0.000000000000000e+00	 
1.151034586000000e+01	 1.165602095000000e+01	 1.180174837000000e+01	 0.000000000000000e+00	 0.000000000000000e+00	 
1.180174837000000e+01	 1.195111110000000e+01	 1.210052819000000e+01	 0.000000000000000e+00	 0.000000000000000e+00	 
1.210052819000000e+01	 1.225367192000000e+01	 1.240687210000000e+01	 0.000000000000000e+00	 0.000000000000000e+00	 
1.240687210000000e+01	 1.256389254000000e+01	 1.272097158000000e+01	 0.000000000000000e+00	 0.000000000000000e+00	 
1.272097158000000e+01	 1.288196687000000e+01	 1.304302299000000e+01	 0.000000000000000e+00	 0.000000000000000e+00	 
1.304302299000000e+01	 1.320809374000000e+01	 1.337322763000000e+01	 0.000000000000000e+00	 0.000000000000000e+00	 
1.337322763000000e+01	 1.354247701000000e+01	 1.371179193000000e+01	 0.000000000000000e+00	 0.000000000000000e+00	 
1.371179193000000e+01	 1.388532572000000e+01	 1.405892751000000e+01	 0.000000000000000e+00	 0.000000000000000e+00	 
1.405892751000000e+01	 1.423685417000000e+01	 1.441485137000000e+01	 0.000000000000000e+00	 0.000000000000000e+00	 
1.441485137000000e+01	 1.459728210000000e+01	 1.477978601000000e+01	 0.000000000000000e+00	 0.000000000000000e+00	 
1.477978601000000e+01	 1.496683482000000e+01	 1.515395954000000e+01	 0.000000000000000e+00	 0.000000000000000e+00	 
1.515395954000000e+01	 1.534574334000000e+01	 1.553760586000000e+01	 0.000000000000000e+00	 0.000000000000000e+00	 
1.553760586000000e+01	 1.573424452000000e+01	 1.593096479000000e+01	 0.000000000000000e+00	 0.000000000000000e+00	 
1.593096479000000e+01	 1.613258120000000e+01	 1.633428223000000e+01	 0.000000000000000e+00	 0.000000000000000e+00	 
1.633428223000000e+01	 1.654100239000000e+01	 1.674781027000000e+01	 3.434274496782995e+07	 8.304816516875136e+07	 
1.674781027000000e+01	 1.695976339000000e+01	 1.717180744000000e+01	 0.000000000000000e+00	 0.000000000000000e+00	 
1.717180744000000e+01	 1.738912597000000e+01	 1.760653875000000e+01	 0.000000000000000e+00	 0.000000000000000e+00	 
1.760653875000000e+01	 1.782935853000000e+01	 1.805227597000000e+01	 0.000000000000000e+00	 0.000000000000000e+00	 
1.805227597000000e+01	 1.828073625000000e+01	 1.850929774000000e+01	 4.635862859746476e+07	 1.014363683320046e+08	 
1.850929774000000e+01	 1.874354130000000e+01	 1.897788972000000e+01	 0.000000000000000e+00	 0.000000000000000e+00	 
1.897788972000000e+01	 1.921806298000000e+01	 1.945834485000000e+01	 0.000000000000000e+00	 0.000000000000000e+00	 
1.945834485000000e+01	 1.970459790000000e+01	 1.995096346000000e+01	 5.805668874560983e+07	 1.178532186301482e+08	 
1.995096346000000e+01	 2.020345020000000e+01	 2.045605348000000e+01	 0.000000000000000e+00	 0.000000000000000e+00	 
2.045605348000000e+01	 2.071493172000000e+01	 2.097393065000000e+01	 0.000000000000000e+00	 0.000000000000000e+00	 
2.097393065000000e+01	 2.123936219000000e+01	 2.150491870000000e+01	 0.000000000000000e+00	 0.000000000000000e+00	 
2.150491870000000e+01	 2.177706942000000e+01	 2.204934954000000e+01	 7.836963755191100e+07	 1.439478291713066e+08	 
2.204934954000000e+01	 2.232838953000000e+01	 2.260756351000000e+01	 0.000000000000000e+00	 0.000000000000000e+00	 
2.260756351000000e+01	 2.289366717000000e+01	 2.317990954000000e+01	 9.105328645550010e+07	 1.590878274380618e+08	 
2.317990954000000e+01	 2.347325569000000e+01	 2.376674541000000e+01	 0.000000000000000e+00	 0.000000000000000e+00	 
2.376674541000000e+01	 2.406751738000000e+01	 2.436843796000000e+01	 0.000000000000000e+00	 0.000000000000000e+00	 
2.436843796000000e+01	 2.467682372000000e+01	 2.498536330000000e+01	 1.140295230129705e+08	 1.848352071467364e+08	 
2.498536330000000e+01	 2.530155559000000e+01	 2.561790707000000e+01	 0.000000000000000e+00	 0.000000000000000e+00	 
2.561790707000000e+01	 2.594210352000000e+01	 2.626646468000000e+01	 0.000000000000000e+00	 0.000000000000000e+00	 
2.626646468000000e+01	 2.659886790000000e+01	 2.693144156000000e+01	 0.000000000000000e+00	 0.000000000000000e+00	 
2.693144156000000e+01	 2.727225929000000e+01	 2.761325336000000e+01	 0.000000000000000e+00	 0.000000000000000e+00	 
2.761325336000000e+01	 2.796269862000000e+01	 2.831232630000000e+01	 0.000000000000000e+00	 0.000000000000000e+00	 
2.831232630000000e+01	 2.867061749000000e+01	 2.902909738000000e+01	 0.000000000000000e+00	 0.000000000000000e+00	 
2.902909738000000e+01	 2.939645842000000e+01	 2.976401464000000e+01	 3.855356662331608e+08	 5.245973760817116e+08	 
2.976401464000000e+01	 3.014067513000000e+01	 3.051753749000000e+01	 0.000000000000000e+00	 0.000000000000000e+00	 
3.051753749000000e+01	 3.090373283000000e+01	 3.129013696000000e+01	 6.718984017320815e+08	 8.696594132171472e+08	 
3.129013696000000e+01	 3.168610852000000e+01	 3.208229599000000e+01	 2.414105510450512e+08	 3.047501093878235e+08	 
3.208229599000000e+01	 3.248829125000000e+01	 3.289450978000000e+01	 0.000000000000000e+00	 0.000000000000000e+00	 
3.289450978000000e+01	 3.331078248000000e+01	 3.372728604000000e+01	 2.804813797324703e+08	 3.368028043120122e+08	 
3.372728604000000e+01	 3.415409634000000e+01	 3.458114534000000e+01	 0.000000000000000e+00	 0.000000000000000e+00	 
3.458114534000000e+01	 3.501876000000000e+01	 3.545662143000000e+01	 0.000000000000000e+00	 0.000000000000000e+00	 
3.545662143000000e+01	 3.590531395000000e+01	 3.635426157000000e+01	 0.000000000000000e+00	 0.000000000000000e+00	 
3.635426157000000e+01	 3.681431238000000e+01	 3.727462689000000e+01	 0.000000000000000e+00	 0.000000000000000e+00	 
3.727462689000000e+01	 3.774632351000000e+01	 3.821829270000000e+01	 0.000000000000000e+00	 0.000000000000000e+00	 
3.821829270000000e+01	 3.870192994000000e+01	 3.918584889000000e+01	 0.000000000000000e+00	 0.000000000000000e+00	 
3.918584889000000e+01	 3.968172902000000e+01	 4.017790030000000e+01	 0.000000000000000e+00	 0.000000000000000e+00	 
4.017790030000000e+01	 4.068633323000000e+01	 4.119506704000000e+01	 5.110874147254460e+08	 5.024617839209388e+08	 
4.119506704000000e+01	 4.171637054000000e+01	 4.223798496000000e+01	 1.101790634225850e+09	 1.056449997738891e+09	 
4.223798496000000e+01	 4.277248484000000e+01	 4.330730599000000e+01	 5.938038030305359e+08	 5.553091974919200e+08	 
4.330730599000000e+01	 4.385533630000000e+01	 4.440369856000000e+01	 1.280108744652012e+09	 1.167564228068431e+09	 
4.440369856000000e+01	 4.496560181000000e+01	 4.552784804000000e+01	 2.069722005578602e+09	 1.841144832072156e+09	 
4.552784804000000e+01	 4.610397542000000e+01	 4.668045713000000e+01	 7.436432781488535e+08	 6.451825554740806e+08	 
4.668045713000000e+01	 4.727116870000000e+01	 4.786224633000000e+01	 1.603129279552034e+09	 1.356527271997441e+09	 
4.786224633000000e+01	 4.846791128000000e+01	 4.907395438000000e+01	 8.639974173908318e+08	 7.130409155826173e+08	 
4.907395438000000e+01	 4.969495125000000e+01	 5.031633873000000e+01	 9.312929992606814e+08	 7.496013606905829e+08	 
5.031633873000000e+01	 5.095305563000000e+01	 5.159017599000000e+01	 1.003830142305177e+09	 7.880364107933042e+08	 
5.159017599000000e+01	 5.224301087000000e+01	 5.289626244000000e+01	 1.082017104986679e+09	 8.284421792957714e+08	 
5.289626244000000e+01	 5.356562331000000e+01	 5.423541453000000e+01	 3.498881829618065e+09	 2.612759115074127e+09	 
5.423541453000000e+01	 5.492171973000000e+01	 5.560846936000000e+01	 2.514269979774878e+09	 1.831150457243485e+09	 
5.560846936000000e+01	 5.631214782000000e+01	 5.701628523000000e+01	 5.420206086793233e+09	 3.850081677793014e+09	 
5.701628523000000e+01	 5.773777674000000e+01	 5.845974218000000e+01	 4.381783915712741e+09	 3.035618011131365e+09	 
5.845974218000000e+01	 5.919949766000000e+01	 5.993974251000000e+01	 1.574358365336355e+09	 1.063755415065585e+09	 
5.993974251000000e+01	 6.069822430000000e+01	 6.145721138000000e+01	 0.000000000000000e+00	 0.000000000000000e+00	 
6.145721138000000e+01	 6.223489351000000e+01	 6.301309735000000e+01	 7.316634746885843e+09	 4.702552042991825e+09	 
6.301309735000000e+01	 6.381046588000000e+01	 6.460837303000000e+01	 3.943258730078225e+09	 2.471835294372595e+09	 
6.460837303000000e+01	 6.542592630000000e+01	 6.624403562000001e+01	 4.250393781603347e+09	 2.598576141307555e+09	 
6.624403562000001e+01	 6.708228459000000e+01	 6.792110758000000e+01	 9.162902326430407e+09	 5.463630986013534e+09	 
6.792110758000000e+01	 6.878057613999999e+01	 6.964063726000001e+01	 7.407441227946277e+09	 4.307829817712854e+09	 
6.964063726000001e+01	 7.052186257000000e+01	 7.140369954000001e+01	 1.596879347064221e+10	 9.057418817128920e+09	 
7.140369954000001e+01	 7.230723235000001e+01	 7.321139651000000e+01	 1.434381753356065e+10	 7.934857319344120e+09	 
7.321139651000000e+01	 7.413780152000000e+01	 7.506485816999999e+01	 1.236883035230696e+10	 6.673367256114166e+09	 
7.506485816999999e+01	 7.601471438000000e+01	 7.696524313000000e+01	 1.333222170160007e+10	 7.015537368597146e+09	 
7.696524313000000e+01	 7.793914418000000e+01	 7.891373932000000e+01	 3.233396314754265e+10	 1.659431684469583e+10	 
7.891373932000000e+01	 7.991229389000000e+01	 8.091156477000000e+01	 3.872490165464279e+10	 1.938352605060814e+10	 
8.091156477000000e+01	 8.193539693000000e+01	 8.295996830000000e+01	 2.504467889433784e+10	 1.222643806630123e+10	 
8.295996830000000e+01	 8.400971794000000e+01	 8.506023039000000e+01	 3.149460394544476e+10	 1.499555893304951e+10	 
8.506023039000000e+01	 8.613655360000000e+01	 8.721366392000000e+01	 3.394767575078854e+10	 1.576444096270226e+10	 
8.721366392000000e+01	 8.831723338000000e+01	 8.942161501000000e+01	 2.613700997800151e+10	 1.183767615885077e+10	 
8.942161501000000e+01	 9.055312043000001e+01	 9.168546385000000e+01	 6.198012936719439e+10	 2.737821018438411e+10	 
9.168546385000000e+01	 9.284561241999999e+01	 9.400662559000000e+01	 5.466082681720712e+10	 2.354890909808261e+10	 
9.400662559000000e+01	 9.519614237000000e+01	 9.638655119000001e+01	 6.546476015727566e+10	 2.750706163137010e+10	 
9.638655119000001e+01	 9.760617962000001e+01	 9.882672834000000e+01	 1.058455817166945e+11	 4.337618755125819e+10	 
9.882672834000000e+01	 1.000772307000000e+02	 1.013286824000000e+02	 7.605983329745624e+10	 3.040017181508767e+10	 
1.013286824000000e+02	 1.026108402000000e+02	 1.038939774000000e+02	 1.557696570336060e+11	 6.072192751071769e+10	 
1.038939774000000e+02	 1.052085920000000e+02	 1.065242169000000e+02	 1.855762744738737e+11	 7.055489603660561e+10	 
1.065242169000000e+02	 1.078721099000000e+02	 1.092210450000000e+02	 1.905052932270523e+11	 7.064050290304079e+10	 
1.092210450000000e+02	 1.106030588000000e+02	 1.119861475000000e+02	 1.848091417473922e+11	 6.683627162009090e+10	 
1.119861475000000e+02	 1.134031459000000e+02	 1.148212530000000e+02	 3.762736063604995e+11	 1.327194371992505e+11	 
1.148212530000000e+02	 1.162741215000000e+02	 1.177281336000000e+02	 5.487272955506062e+11	 1.887684329210511e+11	 
1.177281336000000e+02	 1.192177804000000e+02	 1.207086065000000e+02	 5.914669182847240e+11	 1.984473397777664e+11	 
1.207086065000000e+02	 1.222359624000000e+02	 1.237645348000000e+02	 7.345517365382007e+11	 2.403694276918079e+11	 
1.237645348000000e+02	 1.253305545000000e+02	 1.268978287000000e+02	 8.067039338527878e+11	 2.574619424793788e+11	 
1.268978287000000e+02	 1.285034909000000e+02	 1.301104468000000e+02	 1.078869986914093e+12	 3.358226696519244e+11	 
1.301104468000000e+02	 1.317567550000000e+02	 1.334043974000000e+02	 1.666247209666820e+12	 5.058506978419246e+11	 
1.334043974000000e+02	 1.350923806000000e+02	 1.367817396000000e+02	 1.515399414561148e+12	 4.486958456744897e+11	 
1.367817396000000e+02	 1.385124527000000e+02	 1.402445845000000e+02	 1.714095110279839e+12	 4.949962125880493e+11	 
1.402445845000000e+02	 1.420191092000000e+02	 1.437950967000000e+02	 2.434489506960242e+12	 6.856727620764834e+11	 
