/LowerBin_[mL]	 CenterBin_[mL]	 UpperBin_[mL]	 Volume_WithinBin_AllVideosAnalyzed	 PVD_[nm^3/mL/nm]	 
2.000000000000000e+00	 2.025316000000000e+00	 2.050633000000000e+00	 0.000000000000000e+00	 0.000000000000000e+00	 
2.050633000000000e+00	 2.076590000000000e+00	 2.102548000000000e+00	 0.000000000000000e+00	 0.000000000000000e+00	 
2.102548000000000e+00	 2.129162080000000e+00	 2.155777310000000e+00	 0.000000000000000e+00	 0.000000000000000e+00	 
2.155777310000000e+00	 2.183065104000000e+00	 2.210354203000000e+00	 0.000000000000000e+00	 0.000000000000000e+00	 
2.210354203000000e+00	 2.238332766000000e+00	 2.266312797000000e+00	 0.000000000000000e+00	 0.000000000000000e+00	 
2.266312797000000e+00	 2.294999614000000e+00	 2.323688070000000e+00	 0.000000000000000e+00	 0.000000000000000e+00	 
2.323688070000000e+00	 2.353101071000000e+00	 2.382515889000000e+00	 0.000000000000000e+00	 0.000000000000000e+00	 
2.382515889000000e+00	 2.412673456000000e+00	 2.442833026000000e+00	 0.000000000000000e+00	 0.000000000000000e+00	 
2.442833026000000e+00	 2.473754008000000e+00	 2.504677187000000e+00	 0.000000000000000e+00	 0.000000000000000e+00	 
2.504677187000000e+00	 2.536380908000000e+00	 2.568087030000000e+00	 0.000000000000000e+00	 0.000000000000000e+00	 
2.568087030000000e+00	 2.600593305000000e+00	 2.633102192000000e+00	 0.000000000000000e+00	 0.000000000000000e+00	 
2.633102192000000e+00	 2.666431338000000e+00	 2.699763316000000e+00	 0.000000000000000e+00	 0.000000000000000e+00	 
2.699763316000000e+00	 2.733936162000000e+00	 2.768112071000000e+00	 0.000000000000000e+00	 0.000000000000000e+00	 
2.768112071000000e+00	 2.803149975000000e+00	 2.838191182000000e+00	 0.000000000000000e+00	 0.000000000000000e+00	 
2.838191182000000e+00	 2.874116042000000e+00	 2.910044457000000e+00	 0.000000000000000e+00	 0.000000000000000e+00	 
2.910044457000000e+00	 2.946878725000000e+00	 2.983716810000000e+00	 0.000000000000000e+00	 0.000000000000000e+00	 
2.983716810000000e+00	 3.021483508000000e+00	 3.059254294000000e+00	 0.000000000000000e+00	 0.000000000000000e+00	 
3.059254294000000e+00	 3.097977025000000e+00	 3.136704129000000e+00	 0.000000000000000e+00	 0.000000000000000e+00	 
3.136704129000000e+00	 3.176407095000000e+00	 3.216114728000000e+00	 0.000000000000000e+00	 0.000000000000000e+00	 
3.216114728000000e+00	 3.256822742000000e+00	 3.297535731000000e+00	 0.000000000000000e+00	 0.000000000000000e+00	 
3.297535731000000e+00	 3.339274236000000e+00	 3.381018035000000e+00	 0.000000000000000e+00	 0.000000000000000e+00	 
3.381018035000000e+00	 3.423813116000000e+00	 3.466613825000000e+00	 0.000000000000000e+00	 0.000000000000000e+00	 
3.466613825000000e+00	 3.510492229000000e+00	 3.554376606000000e+00	 0.000000000000000e+00	 0.000000000000000e+00	 
3.554376606000000e+00	 3.599365757000000e+00	 3.644361241000000e+00	 0.000000000000000e+00	 0.000000000000000e+00	 
3.644361241000000e+00	 3.690489256000000e+00	 3.736623978000000e+00	 0.000000000000000e+00	 0.000000000000000e+00	 
3.736623978000000e+00	 3.783919686000000e+00	 3.831222492000000e+00	 8.222526028365742e+05	 8.692024515697695e+06	 
3.831222492000000e+00	 3.879715452000000e+00	 3.928215916000000e+00	 0.000000000000000e+00	 0.000000000000000e+00	 
3.928215916000000e+00	 3.977936436000000e+00	 4.027664881000000e+00	 0.000000000000000e+00	 0.000000000000000e+00	 
4.027664881000000e+00	 4.078644036000000e+00	 4.129631553000000e+00	 0.000000000000000e+00	 0.000000000000000e+00	 
4.129631553000000e+00	 4.181901204000000e+00	 4.234179671000000e+00	 0.000000000000000e+00	 0.000000000000000e+00	 
4.234179671000000e+00	 4.287772486000000e+00	 4.341374590000000e+00	 1.196395378299260e+06	 1.116093364741716e+07	 
4.341374590000000e+00	 4.396324064000000e+00	 4.451283317000000e+00	 0.000000000000000e+00	 0.000000000000000e+00	 
4.451283317000000e+00	 4.507623792000000e+00	 4.563974556000000e+00	 0.000000000000000e+00	 0.000000000000000e+00	 
4.563974556000000e+00	 4.621741244000000e+00	 4.679518751000000e+00	 0.000000000000000e+00	 0.000000000000000e+00	 
4.679518751000000e+00	 4.738747756000000e+00	 4.797988128000000e+00	 0.000000000000000e+00	 0.000000000000000e+00	 
4.797988128000000e+00	 4.858716468000000e+00	 4.919456745000000e+00	 0.000000000000000e+00	 0.000000000000000e+00	 
4.919456745000000e+00	 4.981722374000000e+00	 5.044000531000000e+00	 0.000000000000000e+00	 0.000000000000000e+00	 
5.044000531000000e+00	 5.107842363000000e+00	 5.171697338000000e+00	 0.000000000000000e+00	 0.000000000000000e+00	 
5.171697338000000e+00	 5.237155275000000e+00	 5.302626991000000e+00	 0.000000000000000e+00	 0.000000000000000e+00	 
5.302626991000000e+00	 5.369741943000000e+00	 5.436871335000000e+00	 0.000000000000000e+00	 0.000000000000000e+00	 
5.436871335000000e+00	 5.505685247000000e+00	 5.574514285000000e+00	 0.000000000000000e+00	 0.000000000000000e+00	 
5.574514285000000e+00	 5.645070165000000e+00	 5.715641882000000e+00	 0.000000000000000e+00	 0.000000000000000e+00	 
5.715641882000000e+00	 5.787983828000000e+00	 5.860342347000000e+00	 0.000000000000000e+00	 0.000000000000000e+00	 
5.860342347000000e+00	 5.934515570000000e+00	 6.008706132000000e+00	 0.000000000000000e+00	 0.000000000000000e+00	 
6.008706132000000e+00	 6.084756990000000e+00	 6.160825979000000e+00	 0.000000000000000e+00	 0.000000000000000e+00	 
6.160825979000000e+00	 6.238802003000000e+00	 6.316796980000000e+00	 0.000000000000000e+00	 0.000000000000000e+00	 
6.316796980000000e+00	 6.396746904000000e+00	 6.476716631000000e+00	 0.000000000000000e+00	 0.000000000000000e+00	 
6.476716631000000e+00	 6.558690423000000e+00	 6.640684901000000e+00	 0.000000000000000e+00	 0.000000000000000e+00	 
6.640684901000000e+00	 6.724733792000000e+00	 6.808804285000000e+00	 0.000000000000000e+00	 0.000000000000000e+00	 
6.808804285000000e+00	 6.894980806000000e+00	 6.981179875000000e+00	 0.000000000000000e+00	 0.000000000000000e+00	 
6.981179875000000e+00	 7.069537885000000e+00	 7.157919425000000e+00	 0.000000000000000e+00	 0.000000000000000e+00	 
7.157919425000000e+00	 7.248514147000000e+00	 7.339133415000000e+00	 0.000000000000000e+00	 0.000000000000000e+00	 
7.339133415000000e+00	 7.432021468000000e+00	 7.524935121000000e+00	 0.000000000000000e+00	 0.000000000000000e+00	 
7.524935121000000e+00	 7.620174561000000e+00	 7.715440690000000e+00	 0.000000000000000e+00	 0.000000000000000e+00	 
7.715440690000000e+00	 7.813091039000000e+00	 7.910769208000000e+00	 0.000000000000000e+00	 0.000000000000000e+00	 
7.910769208000000e+00	 8.010891495999999e+00	 8.111042774000000e+00	 0.000000000000000e+00	 0.000000000000000e+00	 
8.111042774000000e+00	 8.213699576000000e+00	 8.316386580000000e+00	 0.000000000000000e+00	 0.000000000000000e+00	 
8.316386580000000e+00	 8.421642057000000e+00	 8.526928988000000e+00	 9.065042896018459e+06	 4.305566266734466e+07	 
8.526928988000000e+00	 8.634848921000000e+00	 8.742801608000001e+00	 0.000000000000000e+00	 0.000000000000000e+00	 
8.742801608000001e+00	 8.853453447000000e+00	 8.964139382999999e+00	 1.053216492884535e+07	 4.758412760246380e+07	 
8.964139382999999e+00	 9.077592284000000e+00	 9.191080672000000e+00	 2.270500181784607e+07	 1.000479107080686e+08	 
9.191080672000000e+00	 9.307405541000000e+00	 9.423767335999999e+00	 0.000000000000000e+00	 0.000000000000000e+00	 
9.423767335999999e+00	 9.543036875000000e+00	 9.662344830000000e+00	 0.000000000000000e+00	 0.000000000000000e+00	 
9.662344830000000e+00	 9.784633581000000e+00	 9.906962288000001e+00	 0.000000000000000e+00	 0.000000000000000e+00	 
9.906962288000001e+00	 1.003234668000000e+01	 1.015777262000000e+01	 3.064905700261505e+07	 1.222001372838788e+08	 
1.015777262000000e+01	 1.028633102000000e+01	 1.041493261000000e+01	 0.000000000000000e+00	 0.000000000000000e+00	 
1.041493261000000e+01	 1.054674536000000e+01	 1.067860302000000e+01	 0.000000000000000e+00	 0.000000000000000e+00	 
1.067860302000000e+01	 1.081375250000000e+01	 1.094894865000000e+01	 1.919149483761372e+07	 7.098873703863367e+07	 
1.094894865000000e+01	 1.108751933000000e+01	 1.122613851000000e+01	 2.068629421379861e+07	 7.462861092320840e+07	 
1.122613851000000e+01	 1.136821699000000e+01	 1.151034586000000e+01	 2.229752147773298e+07	 7.845511904506709e+07	 
1.151034586000000e+01	 1.165602095000000e+01	 1.180174837000000e+01	 2.403424507213907e+07	 8.247782447769232e+07	 
1.180174837000000e+01	 1.195111110000000e+01	 1.210052819000000e+01	 0.000000000000000e+00	 0.000000000000000e+00	 
1.210052819000000e+01	 1.225367192000000e+01	 1.240687210000000e+01	 2.792404133915265e+07	 9.115259167108218e+07	 
1.240687210000000e+01	 1.256389254000000e+01	 1.272097158000000e+01	 0.000000000000000e+00	 0.000000000000000e+00	 
1.272097158000000e+01	 1.288196687000000e+01	 1.304302299000000e+01	 0.000000000000000e+00	 0.000000000000000e+00	 
1.304302299000000e+01	 1.320809374000000e+01	 1.337322763000000e+01	 3.497034805562779e+07	 1.059050776985684e+08	 
1.337322763000000e+01	 1.354247701000000e+01	 1.371179193000000e+01	 0.000000000000000e+00	 0.000000000000000e+00	 
1.371179193000000e+01	 1.388532572000000e+01	 1.405892751000000e+01	 0.000000000000000e+00	 0.000000000000000e+00	 
1.405892751000000e+01	 1.423685417000000e+01	 1.441485137000000e+01	 0.000000000000000e+00	 0.000000000000000e+00	 
1.441485137000000e+01	 1.459728210000000e+01	 1.477978601000000e+01	 9.441163660693650e+07	 2.587083446146306e+08	 
1.477978601000000e+01	 1.496683482000000e+01	 1.515395954000000e+01	 0.000000000000000e+00	 0.000000000000000e+00	 
1.515395954000000e+01	 1.534574334000000e+01	 1.553760586000000e+01	 5.484579273147736e+07	 1.429592566702518e+08	 
1.553760586000000e+01	 1.573424452000000e+01	 1.593096479000000e+01	 5.911765687866081e+07	 1.502893473872846e+08	 
1.593096479000000e+01	 1.613258120000000e+01	 1.633428223000000e+01	 1.274445012528064e+08	 3.159905538744043e+08	 
1.633428223000000e+01	 1.654100239000000e+01	 1.674781027000000e+01	 0.000000000000000e+00	 0.000000000000000e+00	 
1.674781027000000e+01	 1.695976339000000e+01	 1.717180744000000e+01	 1.480706183177283e+08	 3.492254873251355e+08	 
1.717180744000000e+01	 1.738912597000000e+01	 1.760653875000000e+01	 7.980181849944335e+07	 1.835658409315937e+08	 
1.760653875000000e+01	 1.782935853000000e+01	 1.805227597000000e+01	 1.720349468975899e+08	 3.859559829838515e+08	 
1.805227597000000e+01	 1.828073625000000e+01	 1.850929774000000e+01	 9.271725719492953e+07	 2.028727366640092e+08	 
1.850929774000000e+01	 1.874354130000000e+01	 1.897788972000000e+01	 2.998166342075449e+08	 6.398245104569337e+08	 
1.897788972000000e+01	 1.921806298000000e+01	 1.945834485000000e+01	 0.000000000000000e+00	 0.000000000000000e+00	 
1.945834485000000e+01	 1.970459790000000e+01	 1.995096346000000e+01	 2.322267549824393e+08	 4.714128745205928e+08	 
1.995096346000000e+01	 2.020345020000000e+01	 2.045605348000000e+01	 0.000000000000000e+00	 0.000000000000000e+00	 
2.045605348000000e+01	 2.071493172000000e+01	 2.097393065000000e+01	 1.349056210568557e+08	 2.604973319384906e+08	 
2.097393065000000e+01	 2.123936219000000e+01	 2.150491870000000e+01	 2.908264724656962e+08	 5.477081310317540e+08	 
2.150491870000000e+01	 2.177706942000000e+01	 2.204934954000000e+01	 1.567392751038220e+08	 2.878956583426131e+08	 
2.204934954000000e+01	 2.232838953000000e+01	 2.260756351000000e+01	 1.689474835242254e+08	 3.026572113991097e+08	 
2.260756351000000e+01	 2.289366717000000e+01	 2.317990954000000e+01	 3.642131458220004e+08	 6.363513097522473e+08	 
2.317990954000000e+01	 2.347325569000000e+01	 2.376674541000000e+01	 5.888718178556950e+08	 1.003469365046988e+09	 
2.376674541000000e+01	 2.406751738000000e+01	 2.436843796000000e+01	 6.347382414181684e+08	 1.054921224167003e+09	 
2.436843796000000e+01	 2.467682372000000e+01	 2.498536330000000e+01	 0.000000000000000e+00	 0.000000000000000e+00	 
2.498536330000000e+01	 2.530155559000000e+01	 2.561790707000000e+01	 7.374667630107095e+08	 1.165874676167797e+09	 
2.561790707000000e+01	 2.594210352000000e+01	 2.626646468000000e+01	 2.649690150038455e+08	 4.085512388079859e+08	 
2.626646468000000e+01	 2.659886790000000e+01	 2.693144156000000e+01	 5.712141809661909e+08	 8.589985579140586e+08	 
2.693144156000000e+01	 2.727225929000000e+01	 2.761325336000000e+01	 2.154968464248044e+09	 3.160649997914436e+09	 
2.761325336000000e+01	 2.796269862000000e+01	 2.831232630000000e+01	 1.327323441251838e+09	 1.898690916647187e+09	 
2.831232630000000e+01	 2.867061749000000e+01	 2.902909738000000e+01	 1.073030142221711e+09	 1.497033253938915e+09	 
2.902909738000000e+01	 2.939645842000000e+01	 2.976401464000000e+01	 7.710713324663216e+08	 1.049194752163423e+09	 
2.976401464000000e+01	 3.014067513000000e+01	 3.051753749000000e+01	 0.000000000000000e+00	 0.000000000000000e+00	 
3.051753749000000e+01	 3.090373283000000e+01	 3.129013696000000e+01	 8.958645356427755e+08	 1.159545884289530e+09	 
3.129013696000000e+01	 3.168610852000000e+01	 3.208229599000000e+01	 4.828211020901025e+08	 6.095002187756470e+08	 
3.208229599000000e+01	 3.248829125000000e+01	 3.289450978000000e+01	 0.000000000000000e+00	 0.000000000000000e+00	 
3.289450978000000e+01	 3.331078248000000e+01	 3.372728604000000e+01	 5.609627594649407e+08	 6.736056086240244e+08	 
3.372728604000000e+01	 3.415409634000000e+01	 3.458114534000000e+01	 2.418621537717124e+09	 2.832576207481882e+09	 
3.458114534000000e+01	 3.501876000000000e+01	 3.545662143000000e+01	 6.517511688811665e+08	 7.444534194887800e+08	 
3.545662143000000e+01	 3.590531395000000e+01	 3.635426157000000e+01	 2.107545538658393e+09	 2.347873546138871e+09	 
3.635426157000000e+01	 3.681431238000000e+01	 3.727462689000000e+01	 3.028932519104815e+09	 3.291011137952057e+09	 
3.727462689000000e+01	 3.774632351000000e+01	 3.821829270000000e+01	 0.000000000000000e+00	 0.000000000000000e+00	 
3.821829270000000e+01	 3.870192994000000e+01	 3.918584889000000e+01	 8.797867043853800e+08	 9.092874537709039e+08	 
3.918584889000000e+01	 3.968172902000000e+01	 4.017790030000000e+01	 9.483120922056495e+08	 9.559102307063446e+08	 
4.017790030000000e+01	 4.068633323000000e+01	 4.119506704000000e+01	 2.044349658901784e+09	 2.009847135683755e+09	 
4.119506704000000e+01	 4.171637054000000e+01	 4.223798496000000e+01	 1.101790634225850e+09	 1.056449997738891e+09	 
4.223798496000000e+01	 4.277248484000000e+01	 4.330730599000000e+01	 4.750430424244287e+09	 4.442473579935360e+09	 
4.330730599000000e+01	 4.385533630000000e+01	 4.440369856000000e+01	 2.560217489304025e+09	 2.335128456136863e+09	 
4.440369856000000e+01	 4.496560181000000e+01	 4.552784804000000e+01	 4.139444011157203e+09	 3.682289664144313e+09	 
4.552784804000000e+01	 4.610397542000000e+01	 4.668045713000000e+01	 1.487286556297707e+09	 1.290365110948161e+09	 
4.668045713000000e+01	 4.727116870000000e+01	 4.786224633000000e+01	 8.015646397760170e+09	 6.782636359987204e+09	 
4.786224633000000e+01	 4.846791128000000e+01	 4.907395438000000e+01	 0.000000000000000e+00	 0.000000000000000e+00	 
4.907395438000000e+01	 4.969495125000000e+01	 5.031633873000000e+01	 5.587757995564088e+09	 4.497608164143497e+09	 
5.031633873000000e+01	 5.095305563000000e+01	 5.159017599000000e+01	 8.030641138441420e+09	 6.304291286346434e+09	 
5.159017599000000e+01	 5.224301087000000e+01	 5.289626244000000e+01	 6.492102629920076e+09	 4.970653075774629e+09	 
5.289626244000000e+01	 5.356562331000000e+01	 5.423541453000000e+01	 4.665175772824086e+09	 3.483678820098836e+09	 
5.423541453000000e+01	 5.492171973000000e+01	 5.560846936000000e+01	 2.514269979774878e+09	 1.831150457243485e+09	 
5.560846936000000e+01	 5.631214782000000e+01	 5.701628523000000e+01	 8.130309130189850e+09	 5.775122516689522e+09	 
5.701628523000000e+01	 5.773777674000000e+01	 5.845974218000000e+01	 5.842378554283654e+09	 4.047490681508487e+09	 
5.845974218000000e+01	 5.919949766000000e+01	 5.993974251000000e+01	 2.204101711470898e+10	 1.489257581091819e+10	 
5.993974251000000e+01	 6.069822430000000e+01	 6.145721138000000e+01	 1.018189796243585e+10	 6.709790338193811e+09	 
6.145721138000000e+01	 6.223489351000000e+01	 6.301309735000000e+01	 2.194990424065753e+10	 1.410765612897547e+10	 
6.301309735000000e+01	 6.381046588000000e+01	 6.460837303000000e+01	 7.886517460156450e+09	 4.943670588745191e+09	 
6.460837303000000e+01	 6.542592630000000e+01	 6.624403562000001e+01	 1.275118134481004e+10	 7.795728423922665e+09	 
6.624403562000001e+01	 6.708228459000000e+01	 6.792110758000000e+01	 9.162902326430407e+09	 5.463630986013534e+09	 
6.792110758000000e+01	 6.878057613999999e+01	 6.964063726000001e+01	 4.938294151964184e+09	 2.871886545141902e+09	 
6.964063726000001e+01	 7.052186257000000e+01	 7.140369954000001e+01	 2.129172462752295e+10	 1.207655842283856e+10	 
7.140369954000001e+01	 7.230723235000001e+01	 7.321139651000000e+01	 2.295010805369703e+10	 1.269577171095059e+10	 
7.321139651000000e+01	 7.413780152000000e+01	 7.506485816999999e+01	 1.855324552846045e+10	 1.001005088417125e+10	 
7.506485816999999e+01	 7.601471438000000e+01	 7.696524313000000e+01	 1.333222170160007e+10	 7.015537368597146e+09	 
7.696524313000000e+01	 7.793914418000000e+01	 7.891373932000000e+01	 2.874130057559346e+10	 1.475050386195185e+10	 
7.891373932000000e+01	 7.991229389000000e+01	 8.091156477000000e+01	 3.872490165464279e+10	 1.938352605060814e+10	 
8.091156477000000e+01	 8.193539693000000e+01	 8.295996830000000e+01	 5.843758408678830e+10	 2.852835548803621e+10	 
8.295996830000000e+01	 8.400971794000000e+01	 8.506023039000000e+01	 6.298920789088951e+10	 2.999111786609903e+10	 
8.506023039000000e+01	 8.613655360000000e+01	 8.721366392000000e+01	 1.163920311455607e+11	 5.404951187212204e+10	 
8.721366392000000e+01	 8.831723338000000e+01	 8.942161501000000e+01	 1.045480399120060e+11	 4.735070463540308e+10	 
8.942161501000000e+01	 9.055312043000001e+01	 9.168546385000000e+01	 7.888380101279288e+10	 3.484499478012524e+10	 
9.168546385000000e+01	 9.284561241999999e+01	 9.400662559000000e+01	 1.214685040382381e+11	 5.233090910685026e+10	 
9.400662559000000e+01	 9.519614237000000e+01	 9.638655119000001e+01	 1.309295203145513e+11	 5.501412326274020e+10	 
9.638655119000001e+01	 9.760617962000001e+01	 9.882672834000000e+01	 4.233823268667783e+10	 1.735047502050328e+10	 
9.882672834000000e+01	 1.000772307000000e+02	 1.013286824000000e+02	 9.127179995694748e+10	 3.648020617810519e+10	 
1.013286824000000e+02	 1.026108402000000e+02	 1.038939774000000e+02	 9.838083602122488e+10	 3.835069105940065e+10	 
1.038939774000000e+02	 1.052085920000000e+02	 1.065242169000000e+02	 1.944132399250105e+11	 7.391465299072969e+10	 
1.065242169000000e+02	 1.078721099000000e+02	 1.092210450000000e+02	 2.857579398405785e+11	 1.059607543545612e+11	 
1.092210450000000e+02	 1.106030588000000e+02	 1.119861475000000e+02	 2.669465380795666e+11	 9.654128122902019e+10	 
1.119861475000000e+02	 1.134031459000000e+02	 1.148212530000000e+02	 4.205410894617346e+11	 1.483334886344565e+11	 
1.148212530000000e+02	 1.162741215000000e+02	 1.177281336000000e+02	 7.395889635682084e+11	 2.544270182848949e+11	 
1.177281336000000e+02	 1.192177804000000e+02	 1.207086065000000e+02	 5.657509653158229e+11	 1.898191945700374e+11	 
1.207086065000000e+02	 1.222359624000000e+02	 1.237645348000000e+02	 8.315680036281516e+11	 2.721163332360089e+11	 
1.237645348000000e+02	 1.253305545000000e+02	 1.268978287000000e+02	 1.045727321661021e+12	 3.337469624732687e+11	 
1.268978287000000e+02	 1.285034909000000e+02	 1.301104468000000e+02	 1.417023266394630e+12	 4.410805213338709e+11	 
1.301104468000000e+02	 1.317567550000000e+02	 1.334043974000000e+02	 1.562106759062644e+12	 4.742350292268043e+11	 
1.334043974000000e+02	 1.350923806000000e+02	 1.367817396000000e+02	 2.394705247701568e+12	 7.090502252633911e+11	 
1.367817396000000e+02	 1.385124527000000e+02	 1.402445845000000e+02	 2.823215475755029e+12	 8.152878795567872e+11	 
1.402445845000000e+02	 1.420191092000000e+02	 1.437950967000000e+02	 2.564908587690255e+12	 7.224052314734379e+11	 
